,Voltage,Current
0,1.045087976539591,-6.12903225806452e-07
1,3.078812316715542,-1.1422287390029346e-06
2,4.39516129032258,-1.3651026392961896e-06
3,5.237903225806452,-1.4626099706744853e-06
4,5.781158357771261,-1.4626099706744853e-06
5,6.10850439882698,-1.4904692082111417e-06
6,6.303519061583579,-1.4904692082111417e-06
7,6.394061583577713,-1.4904692082111417e-06
8,6.449780058651029,-1.4486803519061588e-06
9,6.4358504398826994,-1.4208211143694988e-06
10,6.380131964809387,-1.3929618768328424e-06
11,6.32441348973607,-1.379032258064516e-06
12,6.247800586510266,-1.351173020527856e-06
13,6.164222873900293,-1.3372434017595333e-06
14,6.066715542521994,-1.2954545454545468e-06
15,5.99010263929619,-1.2954545454545468e-06
16,5.87866568914956,-1.2536656891495603e-06
17,5.781158357771261,-1.2397360703812304e-06
18,5.690615835777127,-1.2118768328445774e-06
19,5.586143695014663,-1.156158357771261e-06
20,5.474706744868037,-1.1422287390029346e-06
21,5.370234604105573,-1.1422287390029346e-06
22,5.272727272727273,-1.0865102639296182e-06
23,5.154325513196483,-1.0865102639296182e-06
24,5.05681818181818,-1.0586510263929618e-06
25,4.966275659824046,-1.044721407624632e-06
26,4.861803519061585,-1.030791788856309e-06
27,4.743401759530791,-9.89002932551319e-07
28,4.645894428152495,-9.611436950146662e-07
29,4.527492668621704,-9.193548387096797e-07
30,4.4439149560117315,-8.914956011730233e-07
31,4.332478005865102,-8.914956011730233e-07
32,4.228005865102638,-8.636363636363633e-07
33,4.130498533724342,-8.218475073313804e-07
34,4.019061583577713,-7.661290322580605e-07
35,3.921554252199414,-7.661290322580605e-07
36,3.8170821114369495,-7.104105571847512e-07
37,3.698680351906159,-6.825513196480948e-07
38,3.6011730205278596,-6.407624633431083e-07
39,3.5036656891495603,-6.12903225806452e-07
40,3.392228739002933,-5.850439882697991e-07
41,3.2947214076246354,-5.153958944281562e-07
42,3.183284457478006,-5.014662756598227e-07
43,3.099706744868035,-4.596774193548363e-07
44,2.9743401759530776,-4.03958944281527e-07
45,2.869868035190617,-3.621700879765406e-07
46,2.7584310850439895,-3.3431085043988416e-07
47,2.6539589442815252,-2.6466275659824135e-07
48,2.570381231671556,-2.0894428152492493e-07
49,2.4589442815249285,-1.532258064516121e-07
50,2.347507331378301,-1.1143695014662925e-07
51,2.23607038123167,-1.3929618768326434e-08
52,2.1246334310850443,-1.3929618768326434e-08
53,2.03409090909091,-3.552713678800501e-21
54,1.9087243401759544,1.3929618768329988e-08
55,1.8251466275659816,2.7859237536656422e-08
56,1.7137096774193559,2.7859237536656422e-08
57,1.6022727272727266,4.178885630498286e-08
58,1.490835777126101,1.3929618768329988e-08
59,1.3793988269794717,4.178885630498286e-08
60,1.2888563049853374,2.7859237536656422e-08
61,1.17741935483871,1.3929618768329988e-08
62,1.0799120234604125,5.57184750733164e-08
63,0.9684750733137832,2.7859237536656422e-08
64,0.8709677419354858,4.178885630498286e-08
65,0.7664956011730215,5.57184750733164e-08
66,0.668988269794724,5.57184750733164e-08
67,0.5575513196480948,4.178885630498286e-08
68,0.46004398826979553,2.7859237536656422e-08
69,0.3625366568914963,5.57184750733164e-08
70,0.25806451612903203,4.178885630498286e-08
71,0.14662756598240456,2.7859237536656422e-08
72,0.035190615835777095,2.7859237536656422e-08
73,-0.04838709677419395,5.57184750733164e-08
74,-0.16678885630498463,5.57184750733164e-08
75,-0.2642961876832839,5.57184750733164e-08
76,-0.36876832844574636,2.7859237536656422e-08
77,-0.4662756598240456,5.57184750733164e-08
78,-0.5846774193548381,4.178885630498286e-08
79,-0.6752199413489741,4.178885630498286e-08
80,-0.7727272727272716,5.57184750733164e-08
81,-0.8771994134897341,4.178885630498286e-08
82,-0.9816715542521983,4.178885630498286e-08
83,-1.1000733137829908,5.57184750733164e-08
84,-1.2045454545454533,4.178885630498286e-08
85,-1.3020527859237525,6.964809384163928e-08
86,-1.4134897360703818,5.57184750733164e-08
87,-1.5109970674486792,6.964809384163928e-08
88,-1.6154692082111417,4.178885630498286e-08
89,-1.7129765395894427,6.964809384163928e-08
90,-1.8174486803519052,8.357771260997283e-08
91,-1.9288856304985327,6.964809384163928e-08
92,-2.033357771260997,5.57184750733164e-08
93,-2.1517595307917894,4.178885630498286e-08
94,-2.249266862170087,5.57184750733164e-08
95,-2.346774193548388,6.964809384163928e-08
96,-2.437316715542522,4.178885630498286e-08
97,-2.555718475073313,5.57184750733164e-08
98,-2.6671554252199403,9.750733137829926e-08
99,-2.7646627565982396,4.178885630498286e-08
100,-2.876099706744867,9.750733137829926e-08
101,-2.9736070381231663,8.357771260997283e-08
102,-3.0780791788856305,8.357771260997283e-08
103,-3.182551319648093,5.57184750733164e-08
104,-3.2800586510263923,6.964809384163928e-08
105,-3.3845307917888547,5.57184750733164e-08
106,-3.495967741935484,6.964809384163928e-08
107,-3.5865102639296182,8.357771260997283e-08
108,-3.711876832844574,8.357771260997283e-08
109,-3.80241935483871,6.964809384163928e-08
110,-3.8999266862170074,8.357771260997283e-08
111,-4.004398826979472,8.357771260997283e-08
112,-4.108870967741936,9.750733137829926e-08
113,-4.19941348973607,8.357771260997283e-08
114,-4.331744868035191,8.357771260997283e-08
115,-4.422287390029325,6.964809384163928e-08
116,-4.5267595307917885,4.178885630498286e-08
117,-4.64516129032258,8.357771260997283e-08
118,-4.742668621700879,8.357771260997283e-08
119,-4.847140762463344,9.750733137829926e-08
120,-4.951612903225806,6.964809384163928e-08
121,-5.0560850439882685,6.964809384163928e-08
122,-5.153592375366569,9.750733137829926e-08
123,-5.265029325513196,5.57184750733164e-08
124,-5.3695014662756595,9.750733137829926e-08
125,-5.467008797653959,6.964809384163928e-08
126,-5.571480938416421,9.750733137829926e-08
127,-5.682917888563049,6.964809384163928e-08
128,-5.780425219941349,9.750733137829926e-08
129,-5.864002932551319,5.57184750733164e-08
130,-5.877932551319647,4.178885630498286e-08
131,-5.857038123167155,6.964809384163928e-08
132,-5.794354838709676,-3.552713678800501e-21
133,-5.745601173020527,4.178885630498286e-08
134,-5.662023460410557,2.7859237536656422e-08
135,-5.578445747800586,1.3929618768329988e-08
136,-5.480938416422287,1.3929618768329988e-08
137,-5.3695014662756595,1.3929618768329988e-08
138,-5.278958944281525,1.3929618768329988e-08
139,-5.174486803519061,2.7859237536656422e-08
140,-5.09090909090909,1.3929618768329988e-08
141,-4.9794721407624625,2.7859237536656422e-08
142,-4.881964809384165,1.3929618768329988e-08
143,-4.777492668621701,2.7859237536656422e-08
144,-4.666055718475073,1.3929618768329988e-08
145,-4.568548387096774,-3.552713678800501e-21
146,-4.457111436950146,-3.552713678800501e-21
147,-4.352639296187682,-3.552713678800501e-21
148,-4.241202346041055,-3.552713678800501e-21
149,-4.143695014662756,1.3929618768329988e-08
150,-4.046187683284457,1.3929618768329988e-08
151,-3.941715542521994,1.3929618768329988e-08
152,-3.8372434017595296,-1.3929618768326434e-08
153,-3.725806451612902,1.3929618768329988e-08
154,-3.6213343108504397,-3.552713678800501e-21
155,-3.5238269794721404,-1.3929618768326434e-08
156,-3.426319648093841,-1.3929618768326434e-08
157,-3.3079178885630505,-3.552713678800501e-21
158,-3.2173753665689144,-3.552713678800501e-21
159,-3.105938416422287,-1.3929618768326434e-08
160,-3.0014662756598245,-1.3929618768326434e-08
161,-2.9039589442815235,-1.3929618768326434e-08
162,-2.7925219941348978,1.3929618768329988e-08
163,-2.6880498533724335,-3.552713678800501e-21
164,-2.5975073313782993,-2.7859237536656422e-08
165,-2.486070381231672,-1.3929618768326434e-08
166,-2.3885630498533708,-3.552713678800501e-21
167,-2.277126099706745,1.3929618768329988e-08
168,-2.179618768328446,-3.552713678800501e-21
169,-2.0612170087976533,-1.3929618768326434e-08
170,-1.963709677419354,-3.552713678800501e-21
171,-1.8522727272727266,-3.552713678800501e-21
172,-1.7478005865102642,-1.3929618768326434e-08
173,-1.6502932551319631,-3.552713678800501e-21
174,-1.5318914956011724,-1.3929618768326434e-08
175,-1.4343841642228732,-1.3929618768326434e-08
176,-1.3299120234604107,-1.3929618768326434e-08
177,-1.2184750733137815,-3.552713678800501e-21
178,-1.120967741935484,-2.7859237536656422e-08
179,-1.0164956011730197,-1.3929618768326434e-08
180,-0.9120234604105555,-3.552713678800501e-21
181,-0.8284457478005862,-2.7859237536656422e-08
182,-0.7170087976539588,-1.3929618768326434e-08
183,-0.6125366568914963,-2.7859237536656422e-08
184,-0.508064516129032,-3.552713678800501e-21
185,-0.4105571847507328,-1.3929618768326434e-08
186,-0.3060850439882703,-1.3929618768326434e-08
187,-0.20161290322580605,-3.552713678800501e-21
188,-0.09017595307917858,-4.1788856304986414e-08
189,0.014296187683285666,-1.3929618768326434e-08
190,0.11876832844574992,-2.7859237536656422e-08
191,0.2162756598240474,-2.7859237536656422e-08
192,0.32771260997067486,-3.552713678800501e-21
193,0.4321847507331391,-4.1788856304986414e-08
194,0.5296920821114384,-1.3929618768326434e-08
195,0.6411290322580641,-3.552713678800501e-21
196,0.7247067448680369,-2.7859237536656422e-08
197,0.8361436950146643,-2.7859237536656422e-08
198,0.9406158357771268,-1.3929618768326434e-08
199,1.038123167155426,-1.3929618768326434e-08
200,1.1495601173020553,-2.7859237536656422e-08
201,1.260997067448681,-1.3929618768326434e-08
202,1.3793988269794717,-2.7859237536656422e-08
203,1.4629765395894445,-2.7859237536656422e-08
204,1.574413489736072,-1.3929618768326434e-08
205,1.6788856304985345,-2.7859237536656422e-08
206,1.7763929618768337,-4.1788856304986414e-08
207,1.887829912023463,-2.7859237536656422e-08
208,1.9923020527859236,-5.5718475073312845e-08
209,2.096774193548388,-6.964809384164638e-08
210,2.201246334310852,-1.532258064516121e-07
211,2.3126832844574796,-2.785923753665678e-07
212,2.417155425219942,-3.900293255131935e-07
213,2.5146627565982413,-4.457478005865134e-07
214,2.6260997067448706,-5.850439882697991e-07
215,2.723607038123168,-6.686217008797648e-07
216,2.8280791788856323,-7.661290322580605e-07
217,2.93951612903226,-8.357771260997033e-07
218,3.0439882697947205,-9.193548387096797e-07
219,3.1554252199413497,-9.89002932551319e-07
220,3.252932551319649,-1.072580645161292e-06
221,3.3574046920821115,-1.1422287390029346e-06
222,3.468841642228739,-1.2397360703812304e-06
223,3.573313782991203,-1.2954545454545468e-06
224,3.6708211143695024,-1.3651026392961896e-06
225,3.782258064516128,-1.4208211143694988e-06
226,3.8867302052785924,-1.4904692082111417e-06
227,3.9912023460410566,-1.5183284457478016e-06
228,4.088709677419356,-1.601906158357771e-06
229,4.200146627565985,-1.6436950146627573e-06
230,4.304618768328446,-1.727272727272723e-06
231,4.402126099706745,-1.755131964809383e-06
232,4.499633431085044,-1.8247800586510259e-06
233,4.618035190615839,-1.8526392961876859e-06
234,4.722507331378299,-1.9222873900293285e-06
235,4.8269794721407635,-1.9640762463343116e-06
236,4.938416422287389,-1.978005865102638e-06
237,5.028958944281527,-2.075513196480937e-06
238,5.133431085043991,-2.1173020527859236e-06
239,5.237903225806452,-2.14516129032258e-06
240,5.356304985337246,-2.17302052785924e-06
241,5.453812316715542,-2.214809384164223e-06
242,5.55828445747801,-2.2705278592375356e-06
243,5.655791788856305,-2.298387096774196e-06
244,5.767228739002935,-2.3819648093841616e-06
245,5.857771260997069,-2.3819648093841616e-06
246,5.96224340175953,-2.465542521994134e-06
247,6.080645161290324,-2.465542521994134e-06
248,6.178152492668623,-2.535190615835777e-06
249,6.282624633431087,-2.535190615835777e-06
250,6.394061583577713,-2.5769794721407673e-06
251,6.498533724340177,-2.61876832844575e-06
252,6.603005865102638,-2.6326979472140762e-06
253,6.693548387096776,-2.646627565982403e-06
254,6.8049853372434015,-2.716275659824046e-06
255,6.902492668621701,-2.7441348973607056e-06
